# Fission Isotope Spectra
#  U235, Pu239, Pu241: Interpolation of reported ILL spectra
#  U238: Interpolation of Vogel's spectra
#
# The columns have the following definitions:
#   Enu: Antineutrino energy [MeV]
#   dNdE_XXX: Antineutrino spectrum [antineutrinos MeV^-1 fission^-1]
#    Enu      dNdE_U235      dNdE_U238     dNdE_Pu239     dNdE_Pu241
     1.8        1.51185        1.68627        1.21948        1.38202
    1.81        1.50048        1.67699        1.21153        1.37455
    1.82         1.4892        1.66776        1.20363        1.36712
    1.83          1.478        1.65857        1.19579        1.35972
    1.84        1.46688        1.64944          1.188        1.35237
    1.85        1.45585        1.64036        1.18025        1.34506
    1.86         1.4449        1.63133        1.17256        1.33779
    1.87        1.43404        1.62235        1.16492        1.33055
    1.88        1.42325        1.61342        1.15733        1.32336
    1.89        1.41255        1.60454        1.14979         1.3162
     1.9        1.40193         1.5957         1.1423        1.30909
    1.91        1.39139        1.58692        1.13485        1.30201
    1.92        1.38092        1.57818        1.12746        1.29497
    1.93        1.37054        1.56949        1.12011        1.28797
    1.94        1.36023        1.56085        1.11281          1.281
    1.95           1.35        1.55226        1.10556        1.27408
    1.96        1.33985        1.54371        1.09835        1.26719
    1.97        1.32977        1.53522        1.09119        1.26033
    1.98        1.31977        1.52676        1.08408        1.25352
    1.99        1.30985        1.51836        1.07702        1.24674
       2            1.3           1.51           1.07           1.24
    2.01        1.29039        1.49935        1.06215        1.23224
    2.02        1.28086        1.48878        1.05435        1.22454
    2.03         1.2714        1.47828        1.04661        1.21688
    2.04          1.262        1.46786        1.03893        1.20927
    2.05        1.25268         1.4575         1.0313        1.20171
    2.06        1.24342        1.44723        1.02373        1.19419
    2.07        1.23424        1.43702        1.01621        1.18672
    2.08        1.22512        1.42689        1.00876         1.1793
    2.09        1.21606        1.41682        1.00135        1.17193
     2.1        1.20708        1.40683          0.994         1.1646
    2.11        1.19816        1.39691       0.986703        1.15731
    2.12        1.18931        1.38706        0.97946        1.15007
    2.13        1.18052        1.37728        0.97227        1.14288
    2.14         1.1718        1.36757       0.965133        1.13573
    2.15        1.16314        1.35792       0.958049        1.12863
    2.16        1.15454        1.34835       0.951016        1.12157
    2.17        1.14601        1.33884       0.944035        1.11456
    2.18        1.13755         1.3294       0.937105        1.10759
    2.19        1.12914        1.32002       0.930226        1.10066
     2.2         1.1208        1.31072       0.923398        1.09378
    2.21        1.11252        1.30147       0.916619        1.08694
    2.22         1.1043         1.2923       0.909891        1.08014
    2.23        1.09614        1.28318       0.903212        1.07338
    2.24        1.08804        1.27413       0.896581        1.06667
    2.25           1.08        1.26515           0.89           1.06
    2.26        1.07215        1.25623       0.881992        1.05166
    2.27        1.06436        1.24737       0.874056        1.04338
    2.28        1.05663        1.23857       0.866192        1.03517
    2.29        1.04895        1.22984       0.858398        1.02702
     2.3        1.04133        1.22116       0.850675        1.01894
    2.31        1.03376        1.21255       0.843021        1.01092
    2.32        1.02625          1.204       0.835436        1.00296
    2.33        1.01879        1.19551       0.827919       0.995071
    2.34        1.01139        1.18708        0.82047        0.98724
    2.35        1.00404        1.17871       0.813088        0.97947
    2.36       0.996745         1.1704       0.805772       0.971762
    2.37       0.989502        1.16215       0.798522       0.964114
    2.38       0.982312        1.15395       0.791337       0.956526
    2.39       0.975174        1.14581       0.784217       0.948998
     2.4       0.968088        1.13773       0.777161       0.941529
    2.41       0.961054        1.12971       0.770168       0.934119
    2.42       0.954071        1.12174       0.763239       0.926768
    2.43       0.947138        1.11383       0.756372       0.919474
    2.44       0.940256        1.10598       0.749566       0.912238
    2.45       0.933424        1.09818       0.742822       0.905058
    2.46       0.926641        1.09043       0.736138       0.897935
    2.47       0.919908        1.08274       0.729515       0.890869
    2.48       0.913223        1.07511       0.722951       0.883857
    2.49       0.906588        1.06753       0.716446       0.876901
     2.5            0.9           1.06           0.71           0.87
    2.51       0.893981        1.05297       0.705188        0.86485
    2.52       0.888002        1.04599       0.700409       0.859731
    2.53       0.882063        1.03905       0.695662       0.854642
    2.54       0.876164        1.03216       0.690948       0.849583
    2.55       0.870304        1.02531       0.686265       0.844554
    2.56       0.864483        1.01851       0.681614       0.839555
    2.57       0.858702        1.01176       0.676995       0.834586
    2.58       0.852959        1.00505       0.672407       0.829646
    2.59       0.847254       0.998383        0.66785       0.824735
     2.6       0.841588       0.991762       0.663324       0.819853
    2.61       0.835959       0.985184       0.658829          0.815
    2.62       0.830368       0.978651       0.654364       0.810176
    2.63       0.824815        0.97216       0.649929        0.80538
    2.64       0.819298       0.965713       0.645524       0.800613
    2.65       0.813819       0.959308        0.64115       0.795874
    2.66       0.808376       0.952946       0.636805       0.791163
    2.67        0.80297       0.946626       0.632489        0.78648
    2.68       0.797599       0.940348       0.628202       0.781825
    2.69       0.792265       0.934112       0.623945       0.777197
     2.7       0.786966       0.927917       0.619717       0.772597
    2.71       0.781703       0.921763       0.615517       0.768024
    2.72       0.776475        0.91565       0.611345       0.763477
    2.73       0.771282       0.909577       0.607202       0.758958
    2.74       0.766124       0.903545       0.603087       0.754466
    2.75          0.761       0.897552          0.599           0.75
    2.76       0.755605         0.8916       0.594255       0.744455
    2.77       0.750248       0.885687       0.589548       0.738951
    2.78        0.74493       0.879813       0.584878       0.733487
    2.79       0.739649       0.873978       0.580245       0.728064
     2.8       0.734405       0.868181       0.575649       0.722681
    2.81       0.729199       0.862424       0.571089       0.717338
    2.82       0.724029       0.856704       0.566566       0.712034
    2.83       0.718896       0.851022       0.562078        0.70677
    2.84         0.7138       0.845378       0.557625       0.701544
    2.85       0.708739       0.839772       0.553208       0.696357
    2.86       0.703715       0.834202       0.548826       0.691208
    2.87       0.698726        0.82867       0.544479       0.686098
    2.88       0.693773       0.823174       0.540166       0.681025
    2.89       0.688854       0.817715       0.535887        0.67599
     2.9       0.683971       0.812292       0.531642       0.670992
    2.91       0.679122       0.806905       0.527431       0.666031
    2.92       0.674307       0.801553       0.523253       0.661107
    2.93       0.669527       0.796237       0.519109       0.656219
    2.94       0.664781       0.790957       0.514997       0.651367
    2.95       0.660068       0.785711       0.510917       0.646551
    2.96       0.655388         0.7805        0.50687       0.641771
    2.97       0.650742       0.775324       0.502855       0.637026
    2.98       0.646129       0.770182       0.498872       0.632316
    2.99       0.641548       0.765074        0.49492       0.627641
       3          0.637           0.76          0.491          0.623
    3.01       0.632616         0.7551       0.486844       0.618513
    3.02       0.628263       0.750232       0.482723       0.614058
    3.03       0.623939       0.745395       0.478637       0.609635
    3.04       0.619646       0.740589       0.474586       0.605244
    3.05       0.615382       0.735815       0.470569       0.600885
    3.06       0.611147       0.731071       0.466586       0.596557
    3.07       0.606941       0.726358       0.462637        0.59226
    3.08       0.602764       0.721675       0.458721       0.587994
    3.09       0.598616       0.717022       0.454838       0.583759
     3.1       0.594497       0.712399       0.450988       0.579554
    3.11       0.590406       0.707806       0.447171        0.57538
    3.12       0.586343       0.703243       0.443386       0.571236
    3.13       0.582308       0.698709       0.439633       0.567121
    3.14       0.578301       0.694204       0.435912       0.563037
    3.15       0.574321       0.689729       0.432222       0.558981
    3.16       0.570369       0.685282       0.428564       0.554955
    3.17       0.566444       0.680864       0.424936       0.550958
    3.18       0.562546       0.676474       0.421339        0.54699
    3.19       0.558674       0.672113       0.417773        0.54305
     3.2        0.55483        0.66778       0.414237       0.539138
    3.21       0.551012       0.663474       0.410731       0.535255
    3.22        0.54722       0.659197       0.407254         0.5314
    3.23       0.543454       0.654947       0.403807       0.527572
    3.24       0.539714       0.650725       0.400389       0.523773
    3.25          0.536       0.646529          0.397           0.52
    3.26        0.53164       0.642361       0.393442       0.515577
    3.27       0.527315        0.63822       0.389917       0.511191
    3.28       0.523025       0.634105       0.386423       0.506842
    3.29       0.518771       0.630017        0.38296       0.502531
     3.3       0.514551       0.625955       0.379528       0.498256
    3.31       0.510365       0.621919       0.376127       0.494018
    3.32       0.506213        0.61791       0.372757       0.489815
    3.33       0.502095       0.613926       0.369417       0.485648
    3.34       0.498011       0.609968       0.366106       0.481517
    3.35        0.49396       0.606035       0.362826       0.477421
    3.36       0.489941       0.602128       0.359574        0.47336
    3.37       0.485956       0.598246       0.356352       0.469333
    3.38       0.482003       0.594389       0.353159       0.465341
    3.39       0.478082       0.590557       0.349994       0.461382
     3.4       0.474193        0.58675       0.346858       0.457458
    3.41       0.470335       0.582967        0.34375       0.453566
    3.42       0.466509       0.579208        0.34067       0.449708
    3.43       0.462714       0.575474       0.337617       0.445882
    3.44        0.45895       0.571764       0.334591        0.44209
    3.45       0.455217       0.568078       0.331593       0.438329
    3.46       0.451514       0.564415       0.328622         0.4346
    3.47       0.447841       0.560776       0.325677       0.430903
    3.48       0.444197       0.557161       0.322759       0.427238
    3.49       0.440584       0.553569       0.319866       0.423603
     3.5          0.437           0.55          0.317           0.42
    3.51       0.433235       0.546119       0.313903       0.416168
    3.52       0.429503       0.542265       0.310836       0.412372
    3.53       0.425803       0.538439       0.307798        0.40861
    3.54       0.422135       0.534639       0.304791       0.404882
    3.55       0.418498       0.530866       0.301813       0.401189
    3.56       0.414893        0.52712       0.298864       0.397529
    3.57       0.411319       0.523401       0.295944       0.393902
    3.58       0.407775       0.519707       0.293052       0.390309
    3.59       0.404263        0.51604       0.290189       0.386748
     3.6        0.40078       0.512398       0.287353        0.38322
    3.61       0.397327       0.508782       0.284546       0.379724
    3.62       0.393904       0.505192       0.281765        0.37626
    3.63       0.390511       0.501627       0.279012       0.372827
    3.64       0.387147       0.498087       0.276286       0.369426
    3.65       0.383812       0.494573       0.273587       0.366056
    3.66       0.380505       0.491083       0.270913       0.362717
    3.67       0.377227       0.487617       0.268266       0.359408
    3.68       0.373978       0.484176       0.265645       0.356129
    3.69       0.370756        0.48076        0.26305        0.35288
     3.7       0.367562       0.477367       0.260479       0.349661
    3.71       0.364395       0.473999       0.257934       0.346471
    3.72       0.361256       0.470654       0.255414        0.34331
    3.73       0.358144       0.467333       0.252918       0.340178
    3.74       0.355059       0.464035       0.250447       0.337075
    3.75          0.352        0.46076          0.248          0.334
    3.76       0.348941       0.457509       0.245371        0.33117
    3.77       0.345909        0.45428        0.24277       0.328364
    3.78       0.342903       0.451075       0.240197       0.325582
    3.79       0.339924       0.447892       0.237651       0.322824
     3.8        0.33697       0.444731       0.235132       0.320088
    3.81       0.334042       0.441593        0.23264       0.317376
    3.82       0.331139       0.438477       0.230174       0.314687
    3.83       0.328262       0.435382       0.227734       0.312021
    3.84        0.32541        0.43231        0.22532       0.309377
    3.85       0.322582        0.42926       0.222932       0.306756
    3.86       0.319779        0.42623       0.220569       0.304157
    3.87          0.317       0.423223       0.218231        0.30158
    3.88       0.314246       0.420236       0.215918       0.299025
    3.89       0.311515       0.417271       0.213629       0.296491
     3.9       0.308808       0.414326       0.211365       0.293979
    3.91       0.306125       0.411402       0.209124       0.291489
    3.92       0.303465       0.408499       0.206908       0.289019
    3.93       0.300828       0.405617       0.204715        0.28657
    3.94       0.298214       0.402754       0.202545       0.284142
    3.95       0.295623       0.399912       0.200398       0.281735
    3.96       0.293054        0.39709       0.198274       0.279348
    3.97       0.290507       0.394288       0.196172       0.276981
    3.98       0.287983       0.391506       0.194093       0.274634
    3.99       0.285481       0.388743       0.192036       0.272307
       4          0.283          0.386           0.19           0.27
    4.01       0.280316       0.382902       0.188111       0.267299
    4.02       0.277657       0.379829       0.186241       0.264626
    4.03       0.275023       0.376781       0.184389       0.261979
    4.04       0.272414       0.373757       0.182555       0.259359
    4.05        0.26983       0.370758        0.18074       0.256764
    4.06        0.26727       0.367783       0.178943       0.254196
    4.07       0.264735       0.364831       0.177164       0.251654
    4.08       0.262224       0.361903       0.175403       0.249137
    4.09       0.259737       0.358999       0.173659       0.246645
     4.1       0.257273       0.356118       0.171932       0.244178
    4.11       0.254832        0.35326       0.170223       0.241735
    4.12       0.252415       0.350425        0.16853       0.239317
    4.13       0.250021       0.347613       0.166854       0.236924
    4.14       0.247649       0.344823       0.165195       0.234554
    4.15         0.2453       0.342056       0.163553       0.232208
    4.16       0.242973       0.339311       0.161927       0.229885
    4.17       0.240668       0.336588       0.160317       0.227586
    4.18       0.238385       0.333887       0.158723        0.22531
    4.19       0.236124       0.331207       0.157145       0.223056
     4.2       0.233884       0.328549       0.155582       0.220825
    4.21       0.231666       0.325912       0.154035       0.218616
    4.22       0.229468       0.323297       0.152504        0.21643
    4.23       0.227292       0.320702       0.150988       0.214265
    4.24       0.225136       0.318129       0.149486       0.212122
    4.25          0.223       0.315576          0.148           0.21
    4.26       0.220696       0.313043       0.146092       0.207571
    4.27       0.218415       0.310531       0.144209        0.20517
    4.28       0.216158       0.308039        0.14235       0.202797
    4.29       0.213925       0.305567       0.140515       0.200451
     4.3       0.211714       0.303115       0.138703       0.198132
    4.31       0.209526       0.300682       0.136915       0.195841
    4.32       0.207361       0.298269        0.13515       0.193575
    4.33       0.205218       0.295875       0.133408       0.191336
    4.34       0.203098       0.293501       0.131688       0.189123
    4.35       0.200999       0.291145        0.12999       0.186935
    4.36       0.198922       0.288809       0.128314       0.184773
    4.37       0.196867       0.286491        0.12666       0.182636
    4.38       0.194832       0.284192       0.125027       0.180523
    4.39       0.192819       0.281911       0.123416       0.178435
     4.4       0.190827       0.279649       0.121825       0.176371
    4.41       0.188855       0.277405       0.120254       0.174331
    4.42       0.186903       0.275179       0.118704       0.172315
    4.43       0.184972        0.27297       0.117174       0.170321
    4.44       0.183061        0.27078       0.115663       0.168351
    4.45       0.181169       0.268606       0.114172       0.166404
    4.46       0.179297       0.266451         0.1127       0.164479
    4.47       0.177444       0.264313       0.111247       0.162577
    4.48       0.175611       0.262191       0.109813       0.160696
    4.49       0.173796       0.260087       0.108397       0.158837
     4.5          0.172          0.258          0.107          0.157
    4.51       0.170189       0.255886       0.105709       0.155217
    4.52       0.168396        0.25379       0.104434       0.153454
    4.53       0.166623       0.251711       0.103175       0.151711
    4.54       0.164868       0.249649        0.10193       0.149988
    4.55       0.163131       0.247604       0.100701       0.148285
    4.56       0.161413       0.245575       0.099486         0.1466
    4.57       0.159713       0.243564      0.0982861       0.144935
    4.58       0.158031       0.241568      0.0971005       0.143289
    4.59       0.156367       0.239589      0.0959293       0.141662
     4.6        0.15472       0.237627      0.0947722       0.140053
    4.61       0.153091        0.23568      0.0936291       0.138462
    4.62       0.151478       0.233749      0.0924998        0.13689
    4.63       0.149883       0.231834       0.091384       0.135335
